 #  Electrostatic field (a.u.)
 #  Element:  C,  Z =   6  atomic weight = 1.2000000E+01 g/mol
 #  Number of electrons =  0
 #  MNUCL =  4,   MELEC =  4
 #
 #   I       R(I)           RHON(I)         RVN(I)          DEN(I)          RVST(I)
 #------------------------------------------------------------------------------------
     1  0.00000000E+00  1.21983662E+13 -2.77555756E-16  0.00000000E+00 -2.77555756E-16
     2  6.27574714E-10  1.21983662E+13  1.05668954E-04  0.00000000E+00  1.05668954E-04
     3  1.30037681E-09  1.21983662E+13  2.18953145E-04  0.00000000E+00  2.18953145E-04
     4  1.99770859E-09  1.21983662E+13  3.36367565E-04  0.00000000E+00  3.36367565E-04
     5  2.72046194E-09  1.21983662E+13  4.58062382E-04  0.00000000E+00  4.58062382E-04
     6  3.46956097E-09  1.21983662E+13  5.84193197E-04  0.00000000E+00  5.84193197E-04
     7  4.24596318E-09  1.21983662E+13  7.14921233E-04  0.00000000E+00  7.14921233E-04
     8  5.05066069E-09  1.21983663E+13  8.50413537E-04  0.00000000E+00  8.50413537E-04
     9  5.88468142E-09  1.21983663E+13  9.90843186E-04  0.00000000E+00  9.90843186E-04
    10  6.74909040E-09  1.21983663E+13  1.13638951E-03  0.00000000E+00  1.13638951E-03
    11  7.64499107E-09  1.21983663E+13  1.28723830E-03  0.00000000E+00  1.28723830E-03
    12  8.57352668E-09  1.21983663E+13  1.44358205E-03  0.00000000E+00  1.44358205E-03
    13  9.53588166E-09  1.21983664E+13  1.60562019E-03  0.00000000E+00  1.60562019E-03
    14  1.05332831E-08  1.21983664E+13  1.77355934E-03  0.00000000E+00  1.77355934E-03
    15  1.15670024E-08  1.21983665E+13  1.94761355E-03  0.00000000E+00  1.94761355E-03
    16  1.26383564E-08  1.21983665E+13  2.12800459E-03  0.00000000E+00  2.12800459E-03
    17  1.37487096E-08  1.21983666E+13  2.31496217E-03  0.00000000E+00  2.31496217E-03
    18  1.48994754E-08  1.21983666E+13  2.50872429E-03  0.00000000E+00  2.50872429E-03
    19  1.60921180E-08  1.21983667E+13  2.70953749E-03  0.00000000E+00  2.70953749E-03
    20  1.73281541E-08  1.21983668E+13  2.91765713E-03  0.00000000E+00  2.91765713E-03
    21  1.86091549E-08  1.21983669E+13  3.13334778E-03  0.00000000E+00  3.13334778E-03
    22  1.99367479E-08  1.21983670E+13  3.35688346E-03  0.00000000E+00  3.35688346E-03
    23  2.13126188E-08  1.21983671E+13  3.58854800E-03  0.00000000E+00  3.58854800E-03
    24  2.27385137E-08  1.21983672E+13  3.82863542E-03  0.00000000E+00  3.82863542E-03
    25  2.42162411E-08  1.21983674E+13  4.07745021E-03  0.00000000E+00  4.07745021E-03
    26  2.57476743E-08  1.21983675E+13  4.33530780E-03  0.00000000E+00  4.33530780E-03
    27  2.73347533E-08  1.21983677E+13  4.60253482E-03  0.00000000E+00  4.60253482E-03
    28  2.89794874E-08  1.21983678E+13  4.87946960E-03  0.00000000E+00  4.87946960E-03
    29  3.06839574E-08  1.21983680E+13  5.16646250E-03  0.00000000E+00  5.16646250E-03
    30  3.24503183E-08  1.21983683E+13  5.46387638E-03  0.00000000E+00  5.46387638E-03
    31  3.42808018E-08  1.21983685E+13  5.77208698E-03  0.00000000E+00  5.77208698E-03
    32  3.61777188E-08  1.21983688E+13  6.09148342E-03  0.00000000E+00  6.09148342E-03
    33  3.81434625E-08  1.21983691E+13  6.42246862E-03  0.00000000E+00  6.42246862E-03
    34  4.01805105E-08  1.21983694E+13  6.76545979E-03  0.00000000E+00  6.76545979E-03
    35  4.22914286E-08  1.21983697E+13  7.12088893E-03  0.00000000E+00  7.12088893E-03
    36  4.44788733E-08  1.21983701E+13  7.48920331E-03  0.00000000E+00  7.48920331E-03
    37  4.67455948E-08  1.21983705E+13  7.87086602E-03  0.00000000E+00  7.87086602E-03
    38  4.90944406E-08  1.21983709E+13  8.26635648E-03  0.00000000E+00  8.26635648E-03
    39  5.15283584E-08  1.21983714E+13  8.67617104E-03  0.00000000E+00  8.67617104E-03
    40  5.40503998E-08  1.21983719E+13  9.10082349E-03  0.00000000E+00  9.10082349E-03
    41  5.66637237E-08  1.21983725E+13  9.54084571E-03  0.00000000E+00  9.54084571E-03
    42  5.93715997E-08  1.21983731E+13  9.99678822E-03  0.00000000E+00  9.99678822E-03
    43  6.21774123E-08  1.21983738E+13  1.04692209E-02  0.00000000E+00  1.04692209E-02
    44  6.50846643E-08  1.21983745E+13  1.09587334E-02  0.00000000E+00  1.09587334E-02
    45  6.80969807E-08  1.21983753E+13  1.14659363E-02  0.00000000E+00  1.14659363E-02
    46  7.12181134E-08  1.21983761E+13  1.19914611E-02  0.00000000E+00  1.19914611E-02
    47  7.44519447E-08  1.21983771E+13  1.25359616E-02  0.00000000E+00  1.25359616E-02
    48  7.78024917E-08  1.21983780E+13  1.31001142E-02  0.00000000E+00  1.31001142E-02
    49  8.12739112E-08  1.21983791E+13  1.36846186E-02  0.00000000E+00  1.36846186E-02
    50  8.48705037E-08  1.21983803E+13  1.42901991E-02  0.00000000E+00  1.42901991E-02
    51  8.85967186E-08  1.21983816E+13  1.49176046E-02  0.00000000E+00  1.49176046E-02
    52  9.24571585E-08  1.21983829E+13  1.55676103E-02  0.00000000E+00  1.55676103E-02
    53  9.64565846E-08  1.21983844E+13  1.62410177E-02  0.00000000E+00  1.62410177E-02
    54  1.00599921E-07  1.21983860E+13  1.69386560E-02  0.00000000E+00  1.69386560E-02
    55  1.04892262E-07  1.21983877E+13  1.76613826E-02  0.00000000E+00  1.76613826E-02
    56  1.09338874E-07  1.21983896E+13  1.84100846E-02  0.00000000E+00  1.84100846E-02
    57  1.13945205E-07  1.21983916E+13  1.91856788E-02  0.00000000E+00  1.91856788E-02
    58  1.18716885E-07  1.21983938E+13  1.99891137E-02  0.00000000E+00  1.99891137E-02
    59  1.23659740E-07  1.21983961E+13  2.08213697E-02  0.00000000E+00  2.08213697E-02
    60  1.28779788E-07  1.21983987E+13  2.16834602E-02  0.00000000E+00  2.16834602E-02
    61  1.34083253E-07  1.21984014E+13  2.25764330E-02  0.00000000E+00  2.25764330E-02
    62  1.39576566E-07  1.21984043E+13  2.35013711E-02  0.00000000E+00  2.35013711E-02
    63  1.45266377E-07  1.21984075E+13  2.44593937E-02  0.00000000E+00  2.44593937E-02
    64  1.51159554E-07  1.21984109E+13  2.54516574E-02  0.00000000E+00  2.54516574E-02
    65  1.57263196E-07  1.21984146E+13  2.64793573E-02  0.00000000E+00  2.64793573E-02
    66  1.63584636E-07  1.21984186E+13  2.75437281E-02  0.00000000E+00  2.75437281E-02
    67  1.70131453E-07  1.21984228E+13  2.86460455E-02  0.00000000E+00  2.86460455E-02
    68  1.76911471E-07  1.21984274E+13  2.97876268E-02  0.00000000E+00  2.97876268E-02
    69  1.83932773E-07  1.21984324E+13  3.09698329E-02  0.00000000E+00  3.09698329E-02
    70  1.91203706E-07  1.21984377E+13  3.21940690E-02  0.00000000E+00  3.21940690E-02
    71  1.98732888E-07  1.21984435E+13  3.34617857E-02  0.00000000E+00  3.34617857E-02
    72  2.06529216E-07  1.21984497E+13  3.47744811E-02  0.00000000E+00  3.47744811E-02
    73  2.14601874E-07  1.21984563E+13  3.61337012E-02  0.00000000E+00  3.61337012E-02
    74  2.22960342E-07  1.21984635E+13  3.75410417E-02  0.00000000E+00  3.75410417E-02
    75  2.31614400E-07  1.21984712E+13  3.89981491E-02  0.00000000E+00  3.89981491E-02
    76  2.40574141E-07  1.21984794E+13  4.05067224E-02  0.00000000E+00  4.05067224E-02
    77  2.49849977E-07  1.21984883E+13  4.20685141E-02  0.00000000E+00  4.20685141E-02
    78  2.59452644E-07  1.21984979E+13  4.36853317E-02  0.00000000E+00  4.36853317E-02
    79  2.69393217E-07  1.21985082E+13  4.53590392E-02  0.00000000E+00  4.53590392E-02
    80  2.79683113E-07  1.21985192E+13  4.70915585E-02  0.00000000E+00  4.70915585E-02
    81  2.90334103E-07  1.21985311E+13  4.88848706E-02  0.00000000E+00  4.88848706E-02
    82  3.01358317E-07  1.21985439E+13  5.07410173E-02  0.00000000E+00  5.07410173E-02
    83  3.12768255E-07  1.21985576E+13  5.26621026E-02  0.00000000E+00  5.26621026E-02
    84  3.24576797E-07  1.21985723E+13  5.46502939E-02  0.00000000E+00  5.46502939E-02
    85  3.36797207E-07  1.21985881E+13  5.67078236E-02  0.00000000E+00  5.67078236E-02
    86  3.49443146E-07  1.21986051E+13  5.88369909E-02  0.00000000E+00  5.88369909E-02
    87  3.62528678E-07  1.21986233E+13  6.10401624E-02  0.00000000E+00  6.10401624E-02
    88  3.76068280E-07  1.21986428E+13  6.33197742E-02  0.00000000E+00  6.33197742E-02
    89  3.90076849E-07  1.21986638E+13  6.56783332E-02  0.00000000E+00  6.56783332E-02
    90  4.04569713E-07  1.21986864E+13  6.81184183E-02  0.00000000E+00  6.81184183E-02
    91  4.19562636E-07  1.21987105E+13  7.06426818E-02  0.00000000E+00  7.06426818E-02
    92  4.35071827E-07  1.21987364E+13  7.32538511E-02  0.00000000E+00  7.32538511E-02
    93  4.51113952E-07  1.21987642E+13  7.59547295E-02  0.00000000E+00  7.59547295E-02
    94  4.67706134E-07  1.21987940E+13  7.87481979E-02  0.00000000E+00  7.87481979E-02
    95  4.84865970E-07  1.21988260E+13  8.16372158E-02  0.00000000E+00  8.16372158E-02
    96  5.02611529E-07  1.21988602E+13  8.46248227E-02  0.00000000E+00  8.46248227E-02
    97  5.20961366E-07  1.21988969E+13  8.77141392E-02  0.00000000E+00  8.77141392E-02
    98  5.39934526E-07  1.21989363E+13  9.09083680E-02  0.00000000E+00  9.09083680E-02
    99  5.59550552E-07  1.21989784E+13  9.42107950E-02  0.00000000E+00  9.42107950E-02
   100  5.79829486E-07  1.21990235E+13  9.76247905E-02  0.00000000E+00  9.76247905E-02
   101  6.00791883E-07  1.21990719E+13  1.01153810E-01  0.00000000E+00  1.01153810E-01
   102  6.22458809E-07  1.21991237E+13  1.04801393E-01  0.00000000E+00  1.04801393E-01
   103  6.44851848E-07  1.21991791E+13  1.08571170E-01  0.00000000E+00  1.08571170E-01
   104  6.67993108E-07  1.21992384E+13  1.12466855E-01  0.00000000E+00  1.12466855E-01
   105  6.91905222E-07  1.21993019E+13  1.16492250E-01  0.00000000E+00  1.16492250E-01
   106  7.16611352E-07  1.21993698E+13  1.20651247E-01  0.00000000E+00  1.20651247E-01
   107  7.42135193E-07  1.21994425E+13  1.24947826E-01  0.00000000E+00  1.24947826E-01
   108  7.68500969E-07  1.21995202E+13  1.29386055E-01  0.00000000E+00  1.29386055E-01
   109  7.95733441E-07  1.21996033E+13  1.33970092E-01  0.00000000E+00  1.33970092E-01
   110  8.23857901E-07  1.21996922E+13  1.38704181E-01  0.00000000E+00  1.38704181E-01
   111  8.52900175E-07  1.21997872E+13  1.43592659E-01  0.00000000E+00  1.43592659E-01
   112  8.82886619E-07  1.21998887E+13  1.48639945E-01  0.00000000E+00  1.48639945E-01
   113  9.13844116E-07  1.21999971E+13  1.53850551E-01  0.00000000E+00  1.53850551E-01
   114  9.45800076E-07  1.22001129E+13  1.59229072E-01  0.00000000E+00  1.59229072E-01
   115  9.78782424E-07  1.22002366E+13  1.64780189E-01  0.00000000E+00  1.64780189E-01
   116  1.01281960E-06  1.22003686E+13  1.70508670E-01  0.00000000E+00  1.70508670E-01
   117  1.04794055E-06  1.22005095E+13  1.76419361E-01  0.00000000E+00  1.76419361E-01
   118  1.08417473E-06  1.22006598E+13  1.82517194E-01  0.00000000E+00  1.82517194E-01
   119  1.12155205E-06  1.22008202E+13  1.88807180E-01  0.00000000E+00  1.88807180E-01
   120  1.16010294E-06  1.22009913E+13  1.95294404E-01  0.00000000E+00  1.95294404E-01
   121  1.19985826E-06  1.22011737E+13  2.01984031E-01  0.00000000E+00  2.01984031E-01
   122  1.24084935E-06  1.22013681E+13  2.08881295E-01  0.00000000E+00  2.08881295E-01
   123  1.28310797E-06  1.22015752E+13  2.15991501E-01  0.00000000E+00  2.15991501E-01
   124  1.32666629E-06  1.22017958E+13  2.23320021E-01  0.00000000E+00  2.23320021E-01
   125  1.37155691E-06  1.22020308E+13  2.30872292E-01  0.00000000E+00  2.30872292E-01
   126  1.41781280E-06  1.22022810E+13  2.38653808E-01  0.00000000E+00  2.38653808E-01
   127  1.46546729E-06  1.22025472E+13  2.46670120E-01  0.00000000E+00  2.46670120E-01
   128  1.51455405E-06  1.22028304E+13  2.54926831E-01  0.00000000E+00  2.54926831E-01
   129  1.56510707E-06  1.22031316E+13  2.63429593E-01  0.00000000E+00  2.63429593E-01
   130  1.61716064E-06  1.22034519E+13  2.72184097E-01  0.00000000E+00  2.72184097E-01
   131  1.67074930E-06  1.22037922E+13  2.81196075E-01  0.00000000E+00  2.81196075E-01
   132  1.72590784E-06  1.22041538E+13  2.90471290E-01  0.00000000E+00  2.90471290E-01
   133  1.78267126E-06  1.22045378E+13  3.00015532E-01  0.00000000E+00  3.00015532E-01
   134  1.84107470E-06  1.22049455E+13  3.09834611E-01  0.00000000E+00  3.09834611E-01
   135  1.90115351E-06  1.22053782E+13  3.19934354E-01  0.00000000E+00  3.19934354E-01
   136  1.96294308E-06  1.22058371E+13  3.30320593E-01  0.00000000E+00  3.30320593E-01
   137  2.02647893E-06  1.22063237E+13  3.40999166E-01  0.00000000E+00  3.40999166E-01
   138  2.09179660E-06  1.22068395E+13  3.51975903E-01  0.00000000E+00  3.51975903E-01
   139  2.15893162E-06  1.22073859E+13  3.63256623E-01  0.00000000E+00  3.63256623E-01
   140  2.22791951E-06  1.22079646E+13  3.74847123E-01  0.00000000E+00  3.74847123E-01
   141  2.29879568E-06  1.22085771E+13  3.86753177E-01  0.00000000E+00  3.86753177E-01
   142  2.37159546E-06  1.22092252E+13  3.98980521E-01  0.00000000E+00  3.98980521E-01
   143  2.44635401E-06  1.22099106E+13  4.11534848E-01  0.00000000E+00  4.11534848E-01
   144  2.52310627E-06  1.22106350E+13  4.24421801E-01  0.00000000E+00  4.24421801E-01
   145  2.60188698E-06  1.22114004E+13  4.37646964E-01  0.00000000E+00  4.37646964E-01
   146  2.68273056E-06  1.22122086E+13  4.51215851E-01  0.00000000E+00  4.51215851E-01
   147  2.76567113E-06  1.22130617E+13  4.65133901E-01  0.00000000E+00  4.65133901E-01
   148  2.85074241E-06  1.22139615E+13  4.79406467E-01  0.00000000E+00  4.79406467E-01
   149  2.93797774E-06  1.22149102E+13  4.94038810E-01  0.00000000E+00  4.94038810E-01
   150  3.02740998E-06  1.22159099E+13  5.09036087E-01  0.00000000E+00  5.09036087E-01
   151  3.11907150E-06  1.22169627E+13  5.24403342E-01  0.00000000E+00  5.24403342E-01
   152  3.21299411E-06  1.22180708E+13  5.40145501E-01  0.00000000E+00  5.40145501E-01
   153  3.30920907E-06  1.22192365E+13  5.56267361E-01  0.00000000E+00  5.56267361E-01
   154  3.40774697E-06  1.22204618E+13  5.72773579E-01  0.00000000E+00  5.72773579E-01
   155  3.50863776E-06  1.22217493E+13  5.89668666E-01  0.00000000E+00  5.89668666E-01
   156  3.61191068E-06  1.22231010E+13  6.06956980E-01  0.00000000E+00  6.06956980E-01
   157  3.71759420E-06  1.22245194E+13  6.24642713E-01  0.00000000E+00  6.24642713E-01
   158  3.82571604E-06  1.22260066E+13  6.42729886E-01  0.00000000E+00  6.42729886E-01
   159  3.93630307E-06  1.22275651E+13  6.61222339E-01  0.00000000E+00  6.61222339E-01
   160  4.04938131E-06  1.22291970E+13  6.80123724E-01  0.00000000E+00  6.80123724E-01
   161  4.16497590E-06  1.22309046E+13  6.99437499E-01  0.00000000E+00  6.99437499E-01
   162  4.28311105E-06  1.22326902E+13  7.19166915E-01  0.00000000E+00  7.19166915E-01
   163  4.40381001E-06  1.22345558E+13  7.39315015E-01  0.00000000E+00  7.39315015E-01
   164  4.52709507E-06  1.22365036E+13  7.59884623E-01  0.00000000E+00  7.59884623E-01
   165  4.65298749E-06  1.22385356E+13  7.80878338E-01  0.00000000E+00  7.80878338E-01
   166  4.78150752E-06  1.22406537E+13  8.02298531E-01  0.00000000E+00  8.02298531E-01
   167  4.91267436E-06  1.22428597E+13  8.24147332E-01  0.00000000E+00  8.24147332E-01
   168  5.04650610E-06  1.22451554E+13  8.46426629E-01  0.00000000E+00  8.46426629E-01
   169  5.18301980E-06  1.22475422E+13  8.69138065E-01  0.00000000E+00  8.69138065E-01
   170  5.32223136E-06  1.22500216E+13  8.92283027E-01  0.00000000E+00  8.92283027E-01
   171  5.46415560E-06  1.22525947E+13  9.15862642E-01  0.00000000E+00  9.15862642E-01
   172  5.60880619E-06  1.22552625E+13  9.39877780E-01  0.00000000E+00  9.39877780E-01
   173  5.75619567E-06  1.22580259E+13  9.64329041E-01  0.00000000E+00  9.64329041E-01
   174  5.90633546E-06  1.22608851E+13  9.89216756E-01  0.00000000E+00  9.89216756E-01
   175  6.05923579E-06  1.22638406E+13  1.01454098E+00  0.00000000E+00  1.01454098E+00
   176  6.21490577E-06  1.22668922E+13  1.04030151E+00  0.00000000E+00  1.04030151E+00
   177  6.37335338E-06  1.22700394E+13  1.06649783E+00  0.00000000E+00  1.06649783E+00
   178  6.53458542E-06  1.22732814E+13  1.09312918E+00  0.00000000E+00  1.09312918E+00
   179  6.69860758E-06  1.22766171E+13  1.12019449E+00  0.00000000E+00  1.12019449E+00
   180  6.86542441E-06  1.22800447E+13  1.14769243E+00  0.00000000E+00  1.14769243E+00
   181  7.03503933E-06  1.22835621E+13  1.17562138E+00  0.00000000E+00  1.17562138E+00
   182  7.20745468E-06  1.22871668E+13  1.20397942E+00  0.00000000E+00  1.20397942E+00
   183  7.38267167E-06  1.22908554E+13  1.23276437E+00  0.00000000E+00  1.23276437E+00
   184  7.56069046E-06  1.22946244E+13  1.26197374E+00  0.00000000E+00  1.26197374E+00
   185  7.74151012E-06  1.22984692E+13  1.29160479E+00  0.00000000E+00  1.29160479E+00
   186  7.92512870E-06  1.23023849E+13  1.32165445E+00  0.00000000E+00  1.32165445E+00
   187  8.11154320E-06  1.23063656E+13  1.35211941E+00  0.00000000E+00  1.35211941E+00
   188  8.30074963E-06  1.23104048E+13  1.38299607E+00  0.00000000E+00  1.38299607E+00
   189  8.49274302E-06  1.23144953E+13  1.41428054E+00  0.00000000E+00  1.41428054E+00
   190  8.68751745E-06  1.23186289E+13  1.44596865E+00  0.00000000E+00  1.44596865E+00
   191  8.88506603E-06  1.23227965E+13  1.47805598E+00  0.00000000E+00  1.47805598E+00
   192  9.08538102E-06  1.23269882E+13  1.51053781E+00  0.00000000E+00  1.51053781E+00
   193  9.28845375E-06  1.23311930E+13  1.54340917E+00  0.00000000E+00  1.54340917E+00
   194  9.49427473E-06  1.23353989E+13  1.57666482E+00  0.00000000E+00  1.57666482E+00
   195  9.70283362E-06  1.23395927E+13  1.61029925E+00  0.00000000E+00  1.61029925E+00
   196  9.91411931E-06  1.23437604E+13  1.64430669E+00  0.00000000E+00  1.64430669E+00
   197  1.01281199E-05  1.23478865E+13  1.67868112E+00  0.00000000E+00  1.67868112E+00
   198  1.03448228E-05  1.23519543E+13  1.71341626E+00  0.00000000E+00  1.71341626E+00
   199  1.05642146E-05  1.23559461E+13  1.74850559E+00  0.00000000E+00  1.74850559E+00
   200  1.07862813E-05  1.23598425E+13  1.78394234E+00  0.00000000E+00  1.78394234E+00
   201  1.10110083E-05  1.23636230E+13  1.81971950E+00  0.00000000E+00  1.81971950E+00
   202  1.12383803E-05  1.23672656E+13  1.85582981E+00  0.00000000E+00  1.85582981E+00
   203  1.14683815E-05  1.23707469E+13  1.89226579E+00  0.00000000E+00  1.89226579E+00
   204  1.17009953E-05  1.23740418E+13  1.92901974E+00  0.00000000E+00  1.92901974E+00
   205  1.19362049E-05  1.23771240E+13  1.96608371E+00  0.00000000E+00  1.96608371E+00
   206  1.21739928E-05  1.23799654E+13  2.00344956E+00  0.00000000E+00  2.00344956E+00
   207  1.24143411E-05  1.23825363E+13  2.04110891E+00  0.00000000E+00  2.04110891E+00
   208  1.26572313E-05  1.23848055E+13  2.07905319E+00  0.00000000E+00  2.07905319E+00
   209  1.29026449E-05  1.23867401E+13  2.11727361E+00  0.00000000E+00  2.11727361E+00
   210  1.31505624E-05  1.23883053E+13  2.15576118E+00  0.00000000E+00  2.15576118E+00
   211  1.34009646E-05  1.23894651E+13  2.19450673E+00  0.00000000E+00  2.19450673E+00
   212  1.36538314E-05  1.23901813E+13  2.23350088E+00  0.00000000E+00  2.23350088E+00
   213  1.39091427E-05  1.23904144E+13  2.27273408E+00  0.00000000E+00  2.27273408E+00
   214  1.41668782E-05  1.23901228E+13  2.31219659E+00  0.00000000E+00  2.31219659E+00
   215  1.44270170E-05  1.23892636E+13  2.35187850E+00  0.00000000E+00  2.35187850E+00
   216  1.46895382E-05  1.23877919E+13  2.39176973E+00  0.00000000E+00  2.39176973E+00
   217  1.49544208E-05  1.23856614E+13  2.43186004E+00  0.00000000E+00  2.43186004E+00
   218  1.52216433E-05  1.23828241E+13  2.47213901E+00  0.00000000E+00  2.47213901E+00
   219  1.54911842E-05  1.23792302E+13  2.51259610E+00  0.00000000E+00  2.51259610E+00
   220  1.57630220E-05  1.23748287E+13  2.55322060E+00  0.00000000E+00  2.55322060E+00
   221  1.60371348E-05  1.23695668E+13  2.59400167E+00  0.00000000E+00  2.59400167E+00
   222  1.63135008E-05  1.23633905E+13  2.63492833E+00  0.00000000E+00  2.63492833E+00
   223  1.65920981E-05  1.23562443E+13  2.67598946E+00  0.00000000E+00  2.67598946E+00
   224  1.68729045E-05  1.23480717E+13  2.71717384E+00  0.00000000E+00  2.71717384E+00
   225  1.71558980E-05  1.23388145E+13  2.75847012E+00  0.00000000E+00  2.75847012E+00
   226  1.74410565E-05  1.23284140E+13  2.79986683E+00  0.00000000E+00  2.79986683E+00
