 #  Scattering amplitudes (in cm)      MU=(1-cos(TH))/2
 #  Z =   6,   projectile: electron
 #  Kinetic energy = 1.52383E+08 eV
 #
 # TH (deg)      MU          Re(F)        Im(F)        Re(G)        Im(G)
 #--------------------------------------------------------------------------
   0.00000000E+00  0.00000000E+00  0.00000E+00  0.00000E+00  0.00000E+00  0.00000E+00
   9.86424329E-05  7.61557484E-13  0.00000E+00  0.00000E+00  0.00000E+00  0.00000E+00
   1.23303221E-04  1.18993704E-12  0.00000E+00  0.00000E+00  0.00000E+00  0.00000E+00
   1.47961852E-04  1.71346271E-12  0.00000E+00  0.00000E+00  0.00000E+00  0.00000E+00
   1.72623359E-04  2.33224551E-12  0.00000E+00  0.00000E+00  0.00000E+00  0.00000E+00
   1.97283068E-04  3.04617442E-12  0.00000E+00  0.00000E+00  0.00000E+00  0.00000E+00
   2.21943177E-04  3.85530496E-12  0.00000E+00  0.00000E+00  0.00000E+00  0.00000E+00
   2.46603566E-04  4.75963713E-12  0.00000E+00  0.00000E+00  0.00000E+00  0.00000E+00
   2.71264158E-04  5.75917092E-12  0.00000E+00  0.00000E+00  0.00000E+00  0.00000E+00
   2.95924902E-04  6.85390633E-12  0.00000E+00  0.00000E+00  0.00000E+00  0.00000E+00
   3.20584658E-04  8.04378786E-12  0.00000E+00  0.00000E+00  0.00000E+00  0.00000E+00
   3.45245691E-04  9.32892652E-12  0.00000E+00  0.00000E+00  0.00000E+00  0.00000E+00
   3.69905828E-04  1.07092113E-11  0.00000E+00  0.00000E+00  0.00000E+00  0.00000E+00
   3.94566137E-04  1.21846977E-11  0.00000E+00  0.00000E+00  0.00000E+00  0.00000E+00
   4.19226586E-04  1.37553857E-11  0.00000E+00  0.00000E+00  0.00000E+00  0.00000E+00
   4.43887153E-04  1.54212754E-11  0.00000E+00  0.00000E+00  0.00000E+00  0.00000E+00
   4.68547063E-04  1.71823111E-11  0.00000E+00  0.00000E+00  0.00000E+00  0.00000E+00
   4.93207851E-04  1.90386040E-11  0.00000E+00  0.00000E+00  0.00000E+00  0.00000E+00
   5.17868022E-04  2.09900430E-11  0.00000E+00  0.00000E+00  0.00000E+00  0.00000E+00
   5.42528315E-04  2.30366837E-11  0.00000E+00  0.00000E+00  0.00000E+00  0.00000E+00
   5.67188714E-04  2.51785259E-11  0.00000E+00  0.00000E+00  0.00000E+00  0.00000E+00
   5.91849205E-04  2.74155698E-11  0.00000E+00  0.00000E+00  0.00000E+00  0.00000E+00
   6.16509777E-04  2.97478153E-11  0.00000E+00  0.00000E+00  0.00000E+00  0.00000E+00
   6.41169868E-04  3.21752069E-11  0.00000E+00  0.00000E+00  0.00000E+00  0.00000E+00
   6.65830597E-04  3.46978557E-11  0.00000E+00  0.00000E+00  0.00000E+00  0.00000E+00
   6.90490867E-04  3.73156506E-11  0.00000E+00  0.00000E+00  0.00000E+00  0.00000E+00
   7.15151223E-04  4.00286471E-11  0.00000E+00  0.00000E+00  0.00000E+00  0.00000E+00
   7.39811656E-04  4.28368452E-11  0.00000E+00  0.00000E+00  0.00000E+00  0.00000E+00
   7.64471694E-04  4.57401894E-11  0.00000E+00  0.00000E+00  0.00000E+00  0.00000E+00
   7.89132273E-04  4.87387908E-11  0.00000E+00  0.00000E+00  0.00000E+00  0.00000E+00
   8.13792473E-04  5.18325383E-11  0.00000E+00  0.00000E+00  0.00000E+00  0.00000E+00
   8.38453173E-04  5.50215429E-11  0.00000E+00  0.00000E+00  0.00000E+00  0.00000E+00
   8.63113507E-04  5.83056936E-11  0.00000E+00  0.00000E+00  0.00000E+00  0.00000E+00
   8.87773907E-04  6.16850460E-11  0.00000E+00  0.00000E+00  0.00000E+00  0.00000E+00
   9.12433978E-04  6.51595444E-11  0.00000E+00  0.00000E+00  0.00000E+00  0.00000E+00
   9.37094504E-04  6.87293000E-11  0.00000E+00  0.00000E+00  0.00000E+00  0.00000E+00
   9.61755079E-04  7.23942573E-11  0.00000E+00  0.00000E+00  0.00000E+00  0.00000E+00
   9.86415342E-04  7.61543606E-11  0.00000E+00  0.00000E+00  0.00000E+00  0.00000E+00
   1.23301927E-03  1.18991206E-10  0.00000E+00  0.00000E+00  0.00000E+00  0.00000E+00
   1.47962307E-03  1.71347325E-10  0.00000E+00  0.00000E+00  0.00000E+00  0.00000E+00
   1.72622681E-03  2.33222719E-10  0.00000E+00  0.00000E+00  0.00000E+00  0.00000E+00
   1.97283068E-03  3.04617442E-10  0.00000E+00  0.00000E+00  0.00000E+00  0.00000E+00
   2.21943449E-03  3.85531440E-10  0.00000E+00  0.00000E+00  0.00000E+00  0.00000E+00
   2.46603825E-03  4.75964712E-10  0.00000E+00  0.00000E+00  0.00000E+00  0.00000E+00
   2.71264210E-03  5.75917314E-10  0.00000E+00  0.00000E+00  0.00000E+00  0.00000E+00
   2.95924591E-03  6.85389190E-10  0.00000E+00  0.00000E+00  0.00000E+00  0.00000E+00
   3.20584978E-03  8.04380396E-10  0.00000E+00  0.00000E+00  0.00000E+00  0.00000E+00
   3.45245352E-03  9.32890820E-10  0.00000E+00  0.00000E+00  0.00000E+00  0.00000E+00
   3.69905742E-03  1.07092063E-09  0.00000E+00  0.00000E+00  0.00000E+00  0.00000E+00
   3.94566119E-03  1.21846966E-09  0.00000E+00  0.00000E+00  0.00000E+00  0.00000E+00
   4.19226502E-03  1.37553802E-09  0.00000E+00  0.00000E+00  0.00000E+00  0.00000E+00
   4.43886890E-03  1.54212570E-09  0.00000E+00  0.00000E+00  0.00000E+00  0.00000E+00
   4.68547267E-03  1.71823261E-09  0.00000E+00  0.00000E+00  0.00000E+00  0.00000E+00
   4.93207649E-03  1.90385885E-09  0.00000E+00  0.00000E+00  0.00000E+00  0.00000E+00
   5.17868036E-03  2.09900441E-09  0.00000E+00  0.00000E+00  0.00000E+00  0.00000E+00
   5.42528420E-03  2.30366926E-09  0.00000E+00  0.00000E+00  0.00000E+00  0.00000E+00
   5.67188802E-03  2.51785337E-09  0.00000E+00  0.00000E+00  0.00000E+00  0.00000E+00
   5.91849181E-03  2.74155676E-09  0.00000E+00  0.00000E+00  0.00000E+00  0.00000E+00
   6.16509565E-03  2.97477948E-09  0.00000E+00  0.00000E+00  0.00000E+00  0.00000E+00
   6.41169946E-03  3.21752147E-09  0.00000E+00  0.00000E+00  0.00000E+00  0.00000E+00
   6.65830331E-03  3.46978279E-09  0.00000E+00  0.00000E+00  0.00000E+00  0.00000E+00
   6.90490714E-03  3.73156339E-09  0.00000E+00  0.00000E+00  0.00000E+00  0.00000E+00
   7.15151095E-03  4.00286326E-09  0.00000E+00  0.00000E+00  0.00000E+00  0.00000E+00
   7.39811479E-03  4.28368246E-09  0.00000E+00  0.00000E+00  0.00000E+00  0.00000E+00
   7.64471862E-03  4.57402094E-09  0.00000E+00  0.00000E+00  0.00000E+00  0.00000E+00
   7.89132242E-03  4.87387869E-09  0.00000E+00  0.00000E+00  0.00000E+00  0.00000E+00
   8.13792626E-03  5.18325577E-09  0.00000E+00  0.00000E+00  0.00000E+00  0.00000E+00
   8.38453008E-03  5.50215212E-09  0.00000E+00  0.00000E+00  0.00000E+00  0.00000E+00
   8.63113393E-03  5.83056781E-09  0.00000E+00  0.00000E+00  0.00000E+00  0.00000E+00
   8.87773776E-03  6.16850276E-09  0.00000E+00  0.00000E+00  0.00000E+00  0.00000E+00
   9.12434158E-03  6.51595700E-09  0.00000E+00  0.00000E+00  0.00000E+00  0.00000E+00
   9.37094539E-03  6.87293050E-09  0.00000E+00  0.00000E+00  0.00000E+00  0.00000E+00
   9.61754922E-03  7.23942334E-09  0.00000E+00  0.00000E+00  0.00000E+00  0.00000E+00
   9.86415303E-03  7.61543545E-09  0.00000E+00  0.00000E+00  0.00000E+00  0.00000E+00
   1.23301913E-02  1.18991179E-08  0.00000E+00  0.00000E+00  0.00000E+00  0.00000E+00
   1.47962296E-02  1.71347297E-08  0.00000E+00  0.00000E+00  0.00000E+00  0.00000E+00
   1.72622678E-02  2.33222710E-08  0.00000E+00  0.00000E+00  0.00000E+00  0.00000E+00
   1.97283061E-02  3.04617417E-08  0.00000E+00  0.00000E+00  0.00000E+00  0.00000E+00
   2.21943444E-02  3.85531417E-08  0.00000E+00  0.00000E+00  0.00000E+00  0.00000E+00
   2.46603826E-02  4.75964711E-08  0.00000E+00  0.00000E+00  0.00000E+00  0.00000E+00
   2.71264209E-02  5.75917298E-08  0.00000E+00  0.00000E+00  0.00000E+00  0.00000E+00
   2.95924592E-02  6.85389179E-08  0.00000E+00  0.00000E+00  0.00000E+00  0.00000E+00
   3.20584974E-02  8.04380352E-08  0.00000E+00  0.00000E+00  0.00000E+00  0.00000E+00
   3.45245357E-02  9.32890819E-08  0.00000E+00  0.00000E+00  0.00000E+00  0.00000E+00
   3.69905740E-02  1.07092058E-07  0.00000E+00  0.00000E+00  0.00000E+00  0.00000E+00
   3.94566122E-02  1.21846963E-07  0.00000E+00  0.00000E+00  0.00000E+00  0.00000E+00
   4.19226505E-02  1.37553797E-07  0.00000E+00  0.00000E+00  0.00000E+00  0.00000E+00
   4.43886888E-02  1.54212561E-07  0.00000E+00  0.00000E+00  0.00000E+00  0.00000E+00
   4.68547271E-02  1.71823254E-07  0.00000E+00  0.00000E+00  0.00000E+00  0.00000E+00
   4.93207653E-02  1.90385875E-07  0.00000E+00  0.00000E+00  0.00000E+00  0.00000E+00
   5.17868036E-02  2.09900426E-07  0.00000E+00  0.00000E+00  0.00000E+00  0.00000E+00
   5.42528419E-02  2.30366906E-07  0.00000E+00  0.00000E+00  0.00000E+00  0.00000E+00
   5.67188802E-02  2.51785315E-07  0.00000E+00  0.00000E+00  0.00000E+00  0.00000E+00
   5.91849184E-02  2.74155653E-07  0.00000E+00  0.00000E+00  0.00000E+00  0.00000E+00
   6.16509567E-02  2.97477920E-07  0.00000E+00  0.00000E+00  0.00000E+00  0.00000E+00
   6.41169950E-02  3.21752115E-07  0.00000E+00  0.00000E+00  0.00000E+00  0.00000E+00
   6.65830333E-02  3.46978240E-07  0.00000E+00  0.00000E+00  0.00000E+00  0.00000E+00
   6.90490716E-02  3.73156293E-07  0.00000E+00  0.00000E+00  0.00000E+00  0.00000E+00
   7.15151099E-02  4.00286275E-07  0.00000E+00  0.00000E+00  0.00000E+00  0.00000E+00
   7.39811482E-02  4.28368185E-07  0.00000E+00  0.00000E+00  0.00000E+00  0.00000E+00
   7.64471864E-02  4.57402025E-07  0.00000E+00  0.00000E+00  0.00000E+00  0.00000E+00
   7.89132247E-02  4.87387792E-07  0.00000E+00  0.00000E+00  0.00000E+00  0.00000E+00
   8.13792630E-02  5.18325489E-07  0.00000E+00  0.00000E+00  0.00000E+00  0.00000E+00
   8.38453013E-02  5.50215114E-07  0.00000E+00  0.00000E+00  0.00000E+00  0.00000E+00
   8.63113396E-02  5.83056667E-07  0.00000E+00  0.00000E+00  0.00000E+00  0.00000E+00
   8.87773779E-02  6.16850148E-07  0.00000E+00  0.00000E+00  0.00000E+00  0.00000E+00
   9.12434162E-02  6.51595558E-07  0.00000E+00  0.00000E+00  0.00000E+00  0.00000E+00
   9.37094546E-02  6.87292896E-07  0.00000E+00  0.00000E+00  0.00000E+00  0.00000E+00
   9.61754929E-02  7.23942162E-07  0.00000E+00  0.00000E+00  0.00000E+00  0.00000E+00
   9.86415312E-02  7.61543356E-07  0.00000E+00  0.00000E+00  0.00000E+00  0.00000E+00
   1.23301914E-01  1.18991132E-06  0.00000E+00  0.00000E+00  0.00000E+00  0.00000E+00
   1.47962298E-01  1.71347201E-06  0.00000E+00  0.00000E+00  0.00000E+00  0.00000E+00
   1.72622682E-01  2.33222531E-06  0.00000E+00  0.00000E+00  0.00000E+00  0.00000E+00
   1.97283066E-01  3.04617110E-06  0.00000E+00  0.00000E+00  0.00000E+00  0.00000E+00
   2.21943451E-01  3.85530926E-06  0.00000E+00  0.00000E+00  0.00000E+00  0.00000E+00
   2.46603837E-01  4.75963963E-06  0.00000E+00  0.00000E+00  0.00000E+00  0.00000E+00
   2.71264223E-01  5.75916204E-06  0.00000E+00  0.00000E+00  0.00000E+00  0.00000E+00
   2.95924610E-01  6.85387629E-06  0.00000E+00  0.00000E+00  0.00000E+00  0.00000E+00
   3.20584997E-01  8.04378217E-06  0.00000E+00  0.00000E+00  0.00000E+00  0.00000E+00
   3.45245386E-01  9.32887947E-06  0.00000E+00  0.00000E+00  0.00000E+00  0.00000E+00
   3.69905775E-01  1.07091679E-05  0.00000E+00  0.00000E+00  0.00000E+00  0.00000E+00
   3.94566165E-01  1.21846473E-05  0.00000E+00  0.00000E+00  0.00000E+00  0.00000E+00
   4.19226556E-01  1.37553173E-05  0.00000E+00  0.00000E+00  0.00000E+00  0.00000E+00
   4.43886949E-01  1.54211776E-05  0.00000E+00  0.00000E+00  0.00000E+00  0.00000E+00
   4.68547342E-01  1.71822279E-05  0.00000E+00  0.00000E+00  0.00000E+00  0.00000E+00
   4.93207737E-01  1.90384679E-05  0.00000E+00  0.00000E+00  0.00000E+00  0.00000E+00
   5.17868133E-01  2.09898972E-05  0.00000E+00  0.00000E+00  0.00000E+00  0.00000E+00
   5.42528530E-01  2.30365155E-05  0.00000E+00  0.00000E+00  0.00000E+00  0.00000E+00
   5.67188929E-01  2.51783223E-05  0.00000E+00  0.00000E+00  0.00000E+00  0.00000E+00
   5.91849329E-01  2.74153172E-05  0.00000E+00  0.00000E+00  0.00000E+00  0.00000E+00
   6.16509731E-01  2.97474999E-05  0.00000E+00  0.00000E+00  0.00000E+00  0.00000E+00
   6.41170134E-01  3.21748699E-05  0.00000E+00  0.00000E+00  0.00000E+00  0.00000E+00
   6.65830539E-01  3.46974267E-05  0.00000E+00  0.00000E+00  0.00000E+00  0.00000E+00
   6.90490945E-01  3.73151698E-05  0.00000E+00  0.00000E+00  0.00000E+00  0.00000E+00
   7.15151354E-01  4.00280987E-05  0.00000E+00  0.00000E+00  0.00000E+00  0.00000E+00
   7.39811764E-01  4.28362130E-05  0.00000E+00  0.00000E+00  0.00000E+00  0.00000E+00
   7.64472176E-01  4.57395121E-05  0.00000E+00  0.00000E+00  0.00000E+00  0.00000E+00
   7.89132590E-01  4.87379953E-05  0.00000E+00  0.00000E+00  0.00000E+00  0.00000E+00
   8.13793006E-01  5.18316623E-05  0.00000E+00  0.00000E+00  0.00000E+00  0.00000E+00
   8.38453424E-01  5.50205123E-05  0.00000E+00  0.00000E+00  0.00000E+00  0.00000E+00
   8.63113845E-01  5.83045448E-05  0.00000E+00  0.00000E+00  0.00000E+00  0.00000E+00
   8.87774267E-01  6.16837592E-05  0.00000E+00  0.00000E+00  0.00000E+00  0.00000E+00
   9.12434692E-01  6.51581547E-05  0.00000E+00  0.00000E+00  0.00000E+00  0.00000E+00
   9.37095119E-01  6.87277308E-05  0.00000E+00  0.00000E+00  0.00000E+00  0.00000E+00
   9.61755549E-01  7.23924867E-05  0.00000E+00  0.00000E+00  0.00000E+00  0.00000E+00
   9.86415981E-01  7.61524218E-05  6.93561E-11 -2.64737E-11  6.04379E-13 -2.31110E-13
   1.08505773E+00  9.21439392E-05  5.75106E-11 -2.14067E-11  5.51013E-13 -2.05389E-13
   1.18369953E+00  1.09658263E-04  4.84582E-11 -1.76162E-11  5.04367E-13 -1.82816E-13
   1.28234138E+00  1.28695339E-04  4.13979E-11 -1.47223E-11  4.69430E-13 -1.67463E-13
   1.38098328E+00  1.49255109E-04  3.57784E-11 -1.24629E-11  4.34730E-13 -1.51055E-13
   1.47962524E+00  1.71337512E-04  3.12325E-11 -1.06677E-11  4.07991E-13 -1.39555E-13
   1.57826726E+00  1.94942480E-04  2.75054E-11 -9.22185E-12  3.82662E-13 -1.28244E-13
   1.67690934E+00  2.20069940E-04  2.44076E-11 -8.03887E-12  3.60796E-13 -1.18783E-13
   1.77555149E+00  2.46719817E-04  2.18083E-11 -7.06217E-12  3.41678E-13 -1.10743E-13
   1.87419371E+00  2.74892029E-04  1.96033E-11 -6.24561E-12  3.23737E-13 -1.03039E-13
   1.97283602E+00  3.04586490E-04  1.77178E-11 -5.55730E-12  3.08423E-13 -9.68206E-14
   2.07147840E+00  3.35803111E-04  1.60928E-11 -4.97227E-12  2.93856E-13 -9.07465E-14
   2.17012087E+00  3.68541795E-04  1.46817E-11 -4.47068E-12  2.80990E-13 -8.55763E-14
   2.26876342E+00  4.02802443E-04  1.34493E-11 -4.03839E-12  2.69112E-13 -8.08191E-14
   2.36740607E+00  4.38584951E-04  1.23659E-11 -3.66279E-12  2.58100E-13 -7.64205E-14
   2.46604882E+00  4.75889209E-04  1.14089E-11 -3.33503E-12  2.48182E-13 -7.25805E-14
   2.56469167E+00  5.14715105E-04  1.05590E-11 -3.04728E-12  2.38760E-13 -6.88784E-14
   2.66333462E+00  5.55062519E-04  9.80089E-12 -2.79340E-12  2.30234E-13 -6.56361E-14
   2.76197769E+00  5.96931329E-04  9.12193E-12 -2.56855E-12  2.22182E-13 -6.25576E-14
   2.86062086E+00  6.40321408E-04  8.51115E-12 -2.36832E-12  2.14709E-13 -5.97400E-14
   2.95926416E+00  6.85232623E-04  7.96002E-12 -2.18956E-12  2.07768E-13 -5.71620E-14
   3.05790757E+00  7.31664837E-04  7.46078E-12 -2.02920E-12  2.01182E-13 -5.47052E-14
   3.15655111E+00  7.79617909E-04  7.00721E-12 -1.88494E-12  1.95098E-13 -5.24923E-14
   3.25519479E+00  8.29091693E-04  6.59391E-12 -1.75474E-12  1.89296E-13 -5.03679E-14
   3.35383859E+00  8.80086038E-04  6.21615E-12 -1.63681E-12  1.83879E-13 -4.84200E-14
   3.45248253E+00  9.32600789E-04  5.87009E-12 -1.52979E-12  1.78754E-13 -4.65873E-14
   3.55112662E+00  9.86635786E-04  5.55214E-12 -1.43231E-12  1.73890E-13 -4.48542E-14
   3.64977085E+00  1.04219086E-03  5.25944E-12 -1.34337E-12  1.69324E-13 -4.32549E-14
   3.74841523E+00  1.09926585E-03  4.98932E-12 -1.26199E-12  1.64950E-13 -4.17169E-14
   3.84705976E+00  1.15786058E-03  4.73953E-12 -1.18734E-12  1.60835E-13 -4.02954E-14
   3.94570445E+00  1.21797487E-03  4.50810E-12 -1.11877E-12  1.56899E-13 -3.89367E-14
   4.04434931E+00  1.27960853E-03  4.29321E-12 -1.05559E-12  1.53158E-13 -3.76565E-14
   4.14299433E+00  1.34276139E-03  4.09340E-12 -9.97328E-13  1.49602E-13 -3.64523E-14
   4.24163952E+00  1.40743324E-03  3.90722E-12 -9.43451E-13  1.46190E-13 -3.52964E-14
   4.34028489E+00  1.47362389E-03  3.73349E-12 -8.93562E-13  1.42953E-13 -3.42167E-14
   4.43893043E+00  1.54133313E-03  3.57112E-12 -8.47291E-13  1.39838E-13 -3.31766E-14
   4.53757615E+00  1.61056077E-03  3.41912E-12 -8.04285E-13  1.36868E-13 -3.21963E-14
   4.63622206E+00  1.68130659E-03  3.27666E-12 -7.64282E-13  1.34021E-13 -3.12612E-14
   4.73486817E+00  1.75357038E-03  3.14292E-12 -7.26988E-13  1.31284E-13 -3.03660E-14
   4.83351446E+00  1.82735190E-03  3.01722E-12 -6.92190E-13  1.28669E-13 -2.95203E-14
   4.93216096E+00  1.90265095E-03  2.89893E-12 -6.59669E-13  1.26144E-13 -2.87034E-14
   5.03080765E+00  1.97946729E-03  2.78746E-12 -6.29232E-13  1.23728E-13 -2.79309E-14
   5.12945456E+00  2.05780069E-03  2.68232E-12 -6.00722E-13  1.21396E-13 -2.71873E-14
   5.22810167E+00  2.13765091E-03  2.58302E-12 -5.73968E-13  1.19153E-13 -2.64764E-14
   5.32674900E+00  2.21901770E-03  2.48915E-12 -5.48849E-13  1.16995E-13 -2.57980E-14
   5.42539655E+00  2.30190082E-03  2.40030E-12 -5.25227E-13  1.14908E-13 -2.51428E-14
   5.52404432E+00  2.38630001E-03  2.31613E-12 -5.02993E-13  1.12901E-13 -2.45198E-14
   5.62269232E+00  2.47221502E-03  2.23633E-12 -4.82046E-13  1.10958E-13 -2.39168E-14
   5.72134054E+00  2.55964559E-03  2.16057E-12 -4.62285E-13  1.09085E-13 -2.33404E-14
   5.81998901E+00  2.64859144E-03  2.08861E-12 -4.43633E-13  1.07273E-13 -2.27858E-14
   5.91863771E+00  2.73905232E-03  2.02019E-12 -4.26003E-13  1.05519E-13 -2.22506E-14
   6.01728665E+00  2.83102793E-03  1.95508E-12 -4.09330E-13  1.03826E-13 -2.17385E-14
   6.11593584E+00  2.92451801E-03  1.89307E-12 -3.93546E-13  1.02181E-13 -2.12418E-14
   6.21458528E+00  3.01952227E-03  1.83396E-12 -3.78589E-13  1.00593E-13 -2.07661E-14
   6.31323498E+00  3.11604042E-03  1.77759E-12 -3.64409E-13  9.90504E-14 -2.03056E-14
   6.41188494E+00  3.21407216E-03  1.72377E-12 -3.50948E-13  9.75553E-14 -1.98615E-14
   6.51053516E+00  3.31361720E-03  1.67236E-12 -3.38166E-13  9.61065E-14 -1.94341E-14
   6.60918564E+00  3.41467523E-03  1.62322E-12 -3.26016E-13  9.46975E-14 -1.90191E-14
   6.70783640E+00  3.51724595E-03  1.57622E-12 -3.14459E-13  9.33325E-14 -1.86205E-14
   6.80648743E+00  3.62132904E-03  1.53123E-12 -3.03460E-13  9.20039E-14 -1.82332E-14
   6.90513874E+00  3.72692418E-03  1.48814E-12 -2.92981E-13  9.07143E-14 -1.78598E-14
   7.00379033E+00  3.83403106E-03  1.44684E-12 -2.82996E-13  8.94603E-14 -1.74983E-14
   7.10244222E+00  3.94264934E-03  1.40724E-12 -2.73470E-13  8.82395E-14 -1.71475E-14
   7.20109439E+00  4.05277870E-03  1.36924E-12 -2.64381E-13  8.70537E-14 -1.68093E-14
   7.29974686E+00  4.16441881E-03  1.33276E-12 -2.55701E-13  8.58973E-14 -1.64799E-14
   7.39839962E+00  4.27756931E-03  1.29772E-12 -2.47406E-13  8.47731E-14 -1.61620E-14
   7.49705269E+00  4.39222987E-03  1.26404E-12 -2.39478E-13  8.36771E-14 -1.58530E-14
   7.59570607E+00  4.50840014E-03  1.23166E-12 -2.31891E-13  8.26092E-14 -1.55533E-14
   7.69435976E+00  4.62607976E-03  1.20051E-12 -2.24632E-13  8.15691E-14 -1.52631E-14
   7.79301376E+00  4.74526838E-03  1.17052E-12 -2.17679E-13  8.05536E-14 -1.49803E-14
   7.89166809E+00  4.86596563E-03  1.14164E-12 -2.11017E-13  7.95646E-14 -1.47068E-14
   7.99032273E+00  4.98817114E-03  1.11382E-12 -2.04631E-13  7.85985E-14 -1.44402E-14
   8.08897771E+00  5.11188455E-03  1.08700E-12 -1.98506E-13  7.76564E-14 -1.41816E-14
   8.18763301E+00  5.23710547E-03  1.06113E-12 -1.92629E-13  7.67365E-14 -1.39303E-14
   8.28628866E+00  5.36383352E-03  1.03618E-12 -1.86986E-13  7.58377E-14 -1.36854E-14
   8.38494464E+00  5.49206832E-03  1.01210E-12 -1.81566E-13  7.49608E-14 -1.34479E-14
   8.48360096E+00  5.62180948E-03  9.88847E-13 -1.76359E-13  7.41028E-14 -1.32161E-14
   8.58225763E+00  5.75305660E-03  9.66384E-13 -1.71352E-13  7.32652E-14 -1.29911E-14
   8.68091465E+00  5.88580928E-03  9.44679E-13 -1.66537E-13  7.24459E-14 -1.27716E-14
   8.77957203E+00  6.02006712E-03  9.23695E-13 -1.61904E-13  7.16447E-14 -1.25579E-14
   8.87822977E+00  6.15582970E-03  9.03402E-13 -1.57445E-13  7.08616E-14 -1.23500E-14
   8.97688787E+00  6.29309662E-03  8.83769E-13 -1.53151E-13  7.00946E-14 -1.21469E-14
   9.07554634E+00  6.43186746E-03  8.64768E-13 -1.49015E-13  6.93450E-14 -1.19496E-14
   9.17420518E+00  6.57214180E-03  8.46374E-13 -1.45028E-13  6.86105E-14 -1.17567E-14
