 #  Scattering field.
 #  All quantities in atomic units (a.u.), unless otherwise indicated.
 #  Z =   6, NELEC =   0,   projectile: electron
 #  Kinetic energy = 5.59999E+06 a.u. = 1.52383E+08 eV
 #
 #   i       r           r*V         r*Vst        r*Vex       r*Vpol       r*Wabs        rho_e
 #------------------------------------------------------------------------------------------------
     1  0.00000E+00  2.77556E-16  2.77556E-16  0.00000E+00  0.00000E+00  0.00000E+00  0.00000E+00
     2  6.27575E-10 -1.05669E-04 -1.05669E-04  0.00000E+00  0.00000E+00  0.00000E+00  0.00000E+00
     3  1.30038E-09 -2.18953E-04 -2.18953E-04  0.00000E+00  0.00000E+00  0.00000E+00  0.00000E+00
     4  1.99771E-09 -3.36368E-04 -3.36368E-04  0.00000E+00  0.00000E+00  0.00000E+00  0.00000E+00
     5  2.72046E-09 -4.58062E-04 -4.58062E-04  0.00000E+00  0.00000E+00  0.00000E+00  0.00000E+00
     6  3.46956E-09 -5.84193E-04 -5.84193E-04  0.00000E+00  0.00000E+00  0.00000E+00  0.00000E+00
     7  4.24596E-09 -7.14921E-04 -7.14921E-04  0.00000E+00  0.00000E+00  0.00000E+00  0.00000E+00
     8  5.05066E-09 -8.50414E-04 -8.50414E-04  0.00000E+00  0.00000E+00  0.00000E+00  0.00000E+00
     9  5.88468E-09 -9.90843E-04 -9.90843E-04  0.00000E+00  0.00000E+00  0.00000E+00  0.00000E+00
    10  6.74909E-09 -1.13639E-03 -1.13639E-03  0.00000E+00  0.00000E+00  0.00000E+00  0.00000E+00
    11  7.64499E-09 -1.28724E-03 -1.28724E-03  0.00000E+00  0.00000E+00  0.00000E+00  0.00000E+00
    12  8.57353E-09 -1.44358E-03 -1.44358E-03  0.00000E+00  0.00000E+00  0.00000E+00  0.00000E+00
    13  9.53588E-09 -1.60562E-03 -1.60562E-03  0.00000E+00  0.00000E+00  0.00000E+00  0.00000E+00
    14  1.05333E-08 -1.77356E-03 -1.77356E-03  0.00000E+00  0.00000E+00  0.00000E+00  0.00000E+00
    15  1.15670E-08 -1.94761E-03 -1.94761E-03  0.00000E+00  0.00000E+00  0.00000E+00  0.00000E+00
    16  1.26384E-08 -2.12800E-03 -2.12800E-03  0.00000E+00  0.00000E+00  0.00000E+00  0.00000E+00
    17  1.37487E-08 -2.31496E-03 -2.31496E-03  0.00000E+00  0.00000E+00  0.00000E+00  0.00000E+00
    18  1.48995E-08 -2.50872E-03 -2.50872E-03  0.00000E+00  0.00000E+00  0.00000E+00  0.00000E+00
    19  1.60921E-08 -2.70954E-03 -2.70954E-03  0.00000E+00  0.00000E+00  0.00000E+00  0.00000E+00
    20  1.73282E-08 -2.91766E-03 -2.91766E-03  0.00000E+00  0.00000E+00  0.00000E+00  0.00000E+00
    21  1.86092E-08 -3.13335E-03 -3.13335E-03  0.00000E+00  0.00000E+00  0.00000E+00  0.00000E+00
    22  1.99367E-08 -3.35688E-03 -3.35688E-03  0.00000E+00  0.00000E+00  0.00000E+00  0.00000E+00
    23  2.13126E-08 -3.58855E-03 -3.58855E-03  0.00000E+00  0.00000E+00  0.00000E+00  0.00000E+00
    24  2.27385E-08 -3.82864E-03 -3.82864E-03  0.00000E+00  0.00000E+00  0.00000E+00  0.00000E+00
    25  2.42162E-08 -4.07745E-03 -4.07745E-03  0.00000E+00  0.00000E+00  0.00000E+00  0.00000E+00
    26  2.57477E-08 -4.33531E-03 -4.33531E-03  0.00000E+00  0.00000E+00  0.00000E+00  0.00000E+00
    27  2.73348E-08 -4.60253E-03 -4.60253E-03  0.00000E+00  0.00000E+00  0.00000E+00  0.00000E+00
    28  2.89795E-08 -4.87947E-03 -4.87947E-03  0.00000E+00  0.00000E+00  0.00000E+00  0.00000E+00
    29  3.06840E-08 -5.16646E-03 -5.16646E-03  0.00000E+00  0.00000E+00  0.00000E+00  0.00000E+00
    30  3.24503E-08 -5.46388E-03 -5.46388E-03  0.00000E+00  0.00000E+00  0.00000E+00  0.00000E+00
    31  3.42808E-08 -5.77209E-03 -5.77209E-03  0.00000E+00  0.00000E+00  0.00000E+00  0.00000E+00
    32  3.61777E-08 -6.09148E-03 -6.09148E-03  0.00000E+00  0.00000E+00  0.00000E+00  0.00000E+00
    33  3.81435E-08 -6.42247E-03 -6.42247E-03  0.00000E+00  0.00000E+00  0.00000E+00  0.00000E+00
    34  4.01805E-08 -6.76546E-03 -6.76546E-03  0.00000E+00  0.00000E+00  0.00000E+00  0.00000E+00
    35  4.22914E-08 -7.12089E-03 -7.12089E-03  0.00000E+00  0.00000E+00  0.00000E+00  0.00000E+00
    36  4.44789E-08 -7.48920E-03 -7.48920E-03  0.00000E+00  0.00000E+00  0.00000E+00  0.00000E+00
    37  4.67456E-08 -7.87087E-03 -7.87087E-03  0.00000E+00  0.00000E+00  0.00000E+00  0.00000E+00
    38  4.90944E-08 -8.26636E-03 -8.26636E-03  0.00000E+00  0.00000E+00  0.00000E+00  0.00000E+00
    39  5.15284E-08 -8.67617E-03 -8.67617E-03  0.00000E+00  0.00000E+00  0.00000E+00  0.00000E+00
    40  5.40504E-08 -9.10082E-03 -9.10082E-03  0.00000E+00  0.00000E+00  0.00000E+00  0.00000E+00
    41  5.66637E-08 -9.54085E-03 -9.54085E-03  0.00000E+00  0.00000E+00  0.00000E+00  0.00000E+00
    42  5.93716E-08 -9.99679E-03 -9.99679E-03  0.00000E+00  0.00000E+00  0.00000E+00  0.00000E+00
    43  6.21774E-08 -1.04692E-02 -1.04692E-02  0.00000E+00  0.00000E+00  0.00000E+00  0.00000E+00
    44  6.50847E-08 -1.09587E-02 -1.09587E-02  0.00000E+00  0.00000E+00  0.00000E+00  0.00000E+00
    45  6.80970E-08 -1.14659E-02 -1.14659E-02  0.00000E+00  0.00000E+00  0.00000E+00  0.00000E+00
    46  7.12181E-08 -1.19915E-02 -1.19915E-02  0.00000E+00  0.00000E+00  0.00000E+00  0.00000E+00
    47  7.44519E-08 -1.25360E-02 -1.25360E-02  0.00000E+00  0.00000E+00  0.00000E+00  0.00000E+00
    48  7.78025E-08 -1.31001E-02 -1.31001E-02  0.00000E+00  0.00000E+00  0.00000E+00  0.00000E+00
    49  8.12739E-08 -1.36846E-02 -1.36846E-02  0.00000E+00  0.00000E+00  0.00000E+00  0.00000E+00
    50  8.48705E-08 -1.42902E-02 -1.42902E-02  0.00000E+00  0.00000E+00  0.00000E+00  0.00000E+00
    51  8.85967E-08 -1.49176E-02 -1.49176E-02  0.00000E+00  0.00000E+00  0.00000E+00  0.00000E+00
    52  9.24572E-08 -1.55676E-02 -1.55676E-02  0.00000E+00  0.00000E+00  0.00000E+00  0.00000E+00
    53  9.64566E-08 -1.62410E-02 -1.62410E-02  0.00000E+00  0.00000E+00  0.00000E+00  0.00000E+00
    54  1.00600E-07 -1.69387E-02 -1.69387E-02  0.00000E+00  0.00000E+00  0.00000E+00  0.00000E+00
    55  1.04892E-07 -1.76614E-02 -1.76614E-02  0.00000E+00  0.00000E+00  0.00000E+00  0.00000E+00
    56  1.09339E-07 -1.84101E-02 -1.84101E-02  0.00000E+00  0.00000E+00  0.00000E+00  0.00000E+00
    57  1.13945E-07 -1.91857E-02 -1.91857E-02  0.00000E+00  0.00000E+00  0.00000E+00  0.00000E+00
    58  1.18717E-07 -1.99891E-02 -1.99891E-02  0.00000E+00  0.00000E+00  0.00000E+00  0.00000E+00
    59  1.23660E-07 -2.08214E-02 -2.08214E-02  0.00000E+00  0.00000E+00  0.00000E+00  0.00000E+00
    60  1.28780E-07 -2.16835E-02 -2.16835E-02  0.00000E+00  0.00000E+00  0.00000E+00  0.00000E+00
    61  1.34083E-07 -2.25764E-02 -2.25764E-02  0.00000E+00  0.00000E+00  0.00000E+00  0.00000E+00
    62  1.39577E-07 -2.35014E-02 -2.35014E-02  0.00000E+00  0.00000E+00  0.00000E+00  0.00000E+00
    63  1.45266E-07 -2.44594E-02 -2.44594E-02  0.00000E+00  0.00000E+00  0.00000E+00  0.00000E+00
    64  1.51160E-07 -2.54517E-02 -2.54517E-02  0.00000E+00  0.00000E+00  0.00000E+00  0.00000E+00
    65  1.57263E-07 -2.64794E-02 -2.64794E-02  0.00000E+00  0.00000E+00  0.00000E+00  0.00000E+00
    66  1.63585E-07 -2.75437E-02 -2.75437E-02  0.00000E+00  0.00000E+00  0.00000E+00  0.00000E+00
    67  1.70131E-07 -2.86460E-02 -2.86460E-02  0.00000E+00  0.00000E+00  0.00000E+00  0.00000E+00
    68  1.76911E-07 -2.97876E-02 -2.97876E-02  0.00000E+00  0.00000E+00  0.00000E+00  0.00000E+00
    69  1.83933E-07 -3.09698E-02 -3.09698E-02  0.00000E+00  0.00000E+00  0.00000E+00  0.00000E+00
    70  1.91204E-07 -3.21941E-02 -3.21941E-02  0.00000E+00  0.00000E+00  0.00000E+00  0.00000E+00
    71  1.98733E-07 -3.34618E-02 -3.34618E-02  0.00000E+00  0.00000E+00  0.00000E+00  0.00000E+00
    72  2.06529E-07 -3.47745E-02 -3.47745E-02  0.00000E+00  0.00000E+00  0.00000E+00  0.00000E+00
    73  2.14602E-07 -3.61337E-02 -3.61337E-02  0.00000E+00  0.00000E+00  0.00000E+00  0.00000E+00
    74  2.22960E-07 -3.75410E-02 -3.75410E-02  0.00000E+00  0.00000E+00  0.00000E+00  0.00000E+00
    75  2.31614E-07 -3.89981E-02 -3.89981E-02  0.00000E+00  0.00000E+00  0.00000E+00  0.00000E+00
    76  2.40574E-07 -4.05067E-02 -4.05067E-02  0.00000E+00  0.00000E+00  0.00000E+00  0.00000E+00
    77  2.49850E-07 -4.20685E-02 -4.20685E-02  0.00000E+00  0.00000E+00  0.00000E+00  0.00000E+00
    78  2.59453E-07 -4.36853E-02 -4.36853E-02  0.00000E+00  0.00000E+00  0.00000E+00  0.00000E+00
    79  2.69393E-07 -4.53590E-02 -4.53590E-02  0.00000E+00  0.00000E+00  0.00000E+00  0.00000E+00
    80  2.79683E-07 -4.70916E-02 -4.70916E-02  0.00000E+00  0.00000E+00  0.00000E+00  0.00000E+00
    81  2.90334E-07 -4.88849E-02 -4.88849E-02  0.00000E+00  0.00000E+00  0.00000E+00  0.00000E+00
    82  3.01358E-07 -5.07410E-02 -5.07410E-02  0.00000E+00  0.00000E+00  0.00000E+00  0.00000E+00
    83  3.12768E-07 -5.26621E-02 -5.26621E-02  0.00000E+00  0.00000E+00  0.00000E+00  0.00000E+00
    84  3.24577E-07 -5.46503E-02 -5.46503E-02  0.00000E+00  0.00000E+00  0.00000E+00  0.00000E+00
    85  3.36797E-07 -5.67078E-02 -5.67078E-02  0.00000E+00  0.00000E+00  0.00000E+00  0.00000E+00
    86  3.49443E-07 -5.88370E-02 -5.88370E-02  0.00000E+00  0.00000E+00  0.00000E+00  0.00000E+00
    87  3.62529E-07 -6.10402E-02 -6.10402E-02  0.00000E+00  0.00000E+00  0.00000E+00  0.00000E+00
    88  3.76068E-07 -6.33198E-02 -6.33198E-02  0.00000E+00  0.00000E+00  0.00000E+00  0.00000E+00
    89  3.90077E-07 -6.56783E-02 -6.56783E-02  0.00000E+00  0.00000E+00  0.00000E+00  0.00000E+00
    90  4.04570E-07 -6.81184E-02 -6.81184E-02  0.00000E+00  0.00000E+00  0.00000E+00  0.00000E+00
    91  4.19563E-07 -7.06427E-02 -7.06427E-02  0.00000E+00  0.00000E+00  0.00000E+00  0.00000E+00
    92  4.35072E-07 -7.32539E-02 -7.32539E-02  0.00000E+00  0.00000E+00  0.00000E+00  0.00000E+00
    93  4.51114E-07 -7.59547E-02 -7.59547E-02  0.00000E+00  0.00000E+00  0.00000E+00  0.00000E+00
    94  4.67706E-07 -7.87482E-02 -7.87482E-02  0.00000E+00  0.00000E+00  0.00000E+00  0.00000E+00
    95  4.84866E-07 -8.16372E-02 -8.16372E-02  0.00000E+00  0.00000E+00  0.00000E+00  0.00000E+00
    96  5.02612E-07 -8.46248E-02 -8.46248E-02  0.00000E+00  0.00000E+00  0.00000E+00  0.00000E+00
    97  5.20961E-07 -8.77141E-02 -8.77141E-02  0.00000E+00  0.00000E+00  0.00000E+00  0.00000E+00
    98  5.39935E-07 -9.09084E-02 -9.09084E-02  0.00000E+00  0.00000E+00  0.00000E+00  0.00000E+00
    99  5.59551E-07 -9.42108E-02 -9.42108E-02  0.00000E+00  0.00000E+00  0.00000E+00  0.00000E+00
   100  5.79829E-07 -9.76248E-02 -9.76248E-02  0.00000E+00  0.00000E+00  0.00000E+00  0.00000E+00
   101  6.00792E-07 -1.01154E-01 -1.01154E-01  0.00000E+00  0.00000E+00  0.00000E+00  0.00000E+00
   102  6.22459E-07 -1.04801E-01 -1.04801E-01  0.00000E+00  0.00000E+00  0.00000E+00  0.00000E+00
   103  6.44852E-07 -1.08571E-01 -1.08571E-01  0.00000E+00  0.00000E+00  0.00000E+00  0.00000E+00
   104  6.67993E-07 -1.12467E-01 -1.12467E-01  0.00000E+00  0.00000E+00  0.00000E+00  0.00000E+00
   105  6.91905E-07 -1.16492E-01 -1.16492E-01  0.00000E+00  0.00000E+00  0.00000E+00  0.00000E+00
   106  7.16611E-07 -1.20651E-01 -1.20651E-01  0.00000E+00  0.00000E+00  0.00000E+00  0.00000E+00
   107  7.42135E-07 -1.24948E-01 -1.24948E-01  0.00000E+00  0.00000E+00  0.00000E+00  0.00000E+00
   108  7.68501E-07 -1.29386E-01 -1.29386E-01  0.00000E+00  0.00000E+00  0.00000E+00  0.00000E+00
   109  7.95733E-07 -1.33970E-01 -1.33970E-01  0.00000E+00  0.00000E+00  0.00000E+00  0.00000E+00
   110  8.23858E-07 -1.38704E-01 -1.38704E-01  0.00000E+00  0.00000E+00  0.00000E+00  0.00000E+00
   111  8.52900E-07 -1.43593E-01 -1.43593E-01  0.00000E+00  0.00000E+00  0.00000E+00  0.00000E+00
   112  8.82887E-07 -1.48640E-01 -1.48640E-01  0.00000E+00  0.00000E+00  0.00000E+00  0.00000E+00
   113  9.13844E-07 -1.53851E-01 -1.53851E-01  0.00000E+00  0.00000E+00  0.00000E+00  0.00000E+00
   114  9.45800E-07 -1.59229E-01 -1.59229E-01  0.00000E+00  0.00000E+00  0.00000E+00  0.00000E+00
   115  9.78782E-07 -1.64780E-01 -1.64780E-01  0.00000E+00  0.00000E+00  0.00000E+00  0.00000E+00
   116  1.01282E-06 -1.70509E-01 -1.70509E-01  0.00000E+00  0.00000E+00  0.00000E+00  0.00000E+00
   117  1.04794E-06 -1.76419E-01 -1.76419E-01  0.00000E+00  0.00000E+00  0.00000E+00  0.00000E+00
   118  1.08417E-06 -1.82517E-01 -1.82517E-01  0.00000E+00  0.00000E+00  0.00000E+00  0.00000E+00
   119  1.12155E-06 -1.88807E-01 -1.88807E-01  0.00000E+00  0.00000E+00  0.00000E+00  0.00000E+00
   120  1.16010E-06 -1.95294E-01 -1.95294E-01  0.00000E+00  0.00000E+00  0.00000E+00  0.00000E+00
   121  1.19986E-06 -2.01984E-01 -2.01984E-01  0.00000E+00  0.00000E+00  0.00000E+00  0.00000E+00
   122  1.24085E-06 -2.08881E-01 -2.08881E-01  0.00000E+00  0.00000E+00  0.00000E+00  0.00000E+00
   123  1.28311E-06 -2.15992E-01 -2.15992E-01  0.00000E+00  0.00000E+00  0.00000E+00  0.00000E+00
   124  1.32667E-06 -2.23320E-01 -2.23320E-01  0.00000E+00  0.00000E+00  0.00000E+00  0.00000E+00
   125  1.37156E-06 -2.30872E-01 -2.30872E-01  0.00000E+00  0.00000E+00  0.00000E+00  0.00000E+00
   126  1.41781E-06 -2.38654E-01 -2.38654E-01  0.00000E+00  0.00000E+00  0.00000E+00  0.00000E+00
   127  1.46547E-06 -2.46670E-01 -2.46670E-01  0.00000E+00  0.00000E+00  0.00000E+00  0.00000E+00
   128  1.51455E-06 -2.54927E-01 -2.54927E-01  0.00000E+00  0.00000E+00  0.00000E+00  0.00000E+00
   129  1.56511E-06 -2.63430E-01 -2.63430E-01  0.00000E+00  0.00000E+00  0.00000E+00  0.00000E+00
   130  1.61716E-06 -2.72184E-01 -2.72184E-01  0.00000E+00  0.00000E+00  0.00000E+00  0.00000E+00
   131  1.67075E-06 -2.81196E-01 -2.81196E-01  0.00000E+00  0.00000E+00  0.00000E+00  0.00000E+00
   132  1.72591E-06 -2.90471E-01 -2.90471E-01  0.00000E+00  0.00000E+00  0.00000E+00  0.00000E+00
   133  1.78267E-06 -3.00016E-01 -3.00016E-01  0.00000E+00  0.00000E+00  0.00000E+00  0.00000E+00
   134  1.84107E-06 -3.09835E-01 -3.09835E-01  0.00000E+00  0.00000E+00  0.00000E+00  0.00000E+00
   135  1.90115E-06 -3.19934E-01 -3.19934E-01  0.00000E+00  0.00000E+00  0.00000E+00  0.00000E+00
   136  1.96294E-06 -3.30321E-01 -3.30321E-01  0.00000E+00  0.00000E+00  0.00000E+00  0.00000E+00
   137  2.02648E-06 -3.40999E-01 -3.40999E-01  0.00000E+00  0.00000E+00  0.00000E+00  0.00000E+00
   138  2.09180E-06 -3.51976E-01 -3.51976E-01  0.00000E+00  0.00000E+00  0.00000E+00  0.00000E+00
   139  2.15893E-06 -3.63257E-01 -3.63257E-01  0.00000E+00  0.00000E+00  0.00000E+00  0.00000E+00
   140  2.22792E-06 -3.74847E-01 -3.74847E-01  0.00000E+00  0.00000E+00  0.00000E+00  0.00000E+00
   141  2.29880E-06 -3.86753E-01 -3.86753E-01  0.00000E+00  0.00000E+00  0.00000E+00  0.00000E+00
   142  2.37160E-06 -3.98981E-01 -3.98981E-01  0.00000E+00  0.00000E+00  0.00000E+00  0.00000E+00
   143  2.44635E-06 -4.11535E-01 -4.11535E-01  0.00000E+00  0.00000E+00  0.00000E+00  0.00000E+00
   144  2.52311E-06 -4.24422E-01 -4.24422E-01  0.00000E+00  0.00000E+00  0.00000E+00  0.00000E+00
   145  2.60189E-06 -4.37647E-01 -4.37647E-01  0.00000E+00  0.00000E+00  0.00000E+00  0.00000E+00
   146  2.68273E-06 -4.51216E-01 -4.51216E-01  0.00000E+00  0.00000E+00  0.00000E+00  0.00000E+00
   147  2.76567E-06 -4.65134E-01 -4.65134E-01  0.00000E+00  0.00000E+00  0.00000E+00  0.00000E+00
   148  2.85074E-06 -4.79406E-01 -4.79406E-01  0.00000E+00  0.00000E+00  0.00000E+00  0.00000E+00
   149  2.93798E-06 -4.94039E-01 -4.94039E-01  0.00000E+00  0.00000E+00  0.00000E+00  0.00000E+00
   150  3.02741E-06 -5.09036E-01 -5.09036E-01  0.00000E+00  0.00000E+00  0.00000E+00  0.00000E+00
   151  3.11907E-06 -5.24403E-01 -5.24403E-01  0.00000E+00  0.00000E+00  0.00000E+00  0.00000E+00
   152  3.21299E-06 -5.40146E-01 -5.40146E-01  0.00000E+00  0.00000E+00  0.00000E+00  0.00000E+00
   153  3.30921E-06 -5.56267E-01 -5.56267E-01  0.00000E+00  0.00000E+00  0.00000E+00  0.00000E+00
   154  3.40775E-06 -5.72774E-01 -5.72774E-01  0.00000E+00  0.00000E+00  0.00000E+00  0.00000E+00
   155  3.50864E-06 -5.89669E-01 -5.89669E-01  0.00000E+00  0.00000E+00  0.00000E+00  0.00000E+00
   156  3.61191E-06 -6.06957E-01 -6.06957E-01  0.00000E+00  0.00000E+00  0.00000E+00  0.00000E+00
   157  3.71759E-06 -6.24643E-01 -6.24643E-01  0.00000E+00  0.00000E+00  0.00000E+00  0.00000E+00
   158  3.82572E-06 -6.42730E-01 -6.42730E-01  0.00000E+00  0.00000E+00  0.00000E+00  0.00000E+00
   159  3.93630E-06 -6.61222E-01 -6.61222E-01  0.00000E+00  0.00000E+00  0.00000E+00  0.00000E+00
   160  4.04938E-06 -6.80124E-01 -6.80124E-01  0.00000E+00  0.00000E+00  0.00000E+00  0.00000E+00
   161  4.16498E-06 -6.99437E-01 -6.99437E-01  0.00000E+00  0.00000E+00  0.00000E+00  0.00000E+00
   162  4.28311E-06 -7.19167E-01 -7.19167E-01  0.00000E+00  0.00000E+00  0.00000E+00  0.00000E+00
   163  4.40381E-06 -7.39315E-01 -7.39315E-01  0.00000E+00  0.00000E+00  0.00000E+00  0.00000E+00
   164  4.52710E-06 -7.59885E-01 -7.59885E-01  0.00000E+00  0.00000E+00  0.00000E+00  0.00000E+00
   165  4.65299E-06 -7.80878E-01 -7.80878E-01  0.00000E+00  0.00000E+00  0.00000E+00  0.00000E+00
   166  4.78151E-06 -8.02299E-01 -8.02299E-01  0.00000E+00  0.00000E+00  0.00000E+00  0.00000E+00
   167  4.91267E-06 -8.24147E-01 -8.24147E-01  0.00000E+00  0.00000E+00  0.00000E+00  0.00000E+00
   168  5.04651E-06 -8.46427E-01 -8.46427E-01  0.00000E+00  0.00000E+00  0.00000E+00  0.00000E+00
   169  5.18302E-06 -8.69138E-01 -8.69138E-01  0.00000E+00  0.00000E+00  0.00000E+00  0.00000E+00
   170  5.32223E-06 -8.92283E-01 -8.92283E-01  0.00000E+00  0.00000E+00  0.00000E+00  0.00000E+00
   171  5.46416E-06 -9.15863E-01 -9.15863E-01  0.00000E+00  0.00000E+00  0.00000E+00  0.00000E+00
   172  5.60881E-06 -9.39878E-01 -9.39878E-01  0.00000E+00  0.00000E+00  0.00000E+00  0.00000E+00
   173  5.75620E-06 -9.64329E-01 -9.64329E-01  0.00000E+00  0.00000E+00  0.00000E+00  0.00000E+00
   174  5.90634E-06 -9.89217E-01 -9.89217E-01  0.00000E+00  0.00000E+00  0.00000E+00  0.00000E+00
   175  6.05924E-06 -1.01454E+00 -1.01454E+00  0.00000E+00  0.00000E+00  0.00000E+00  0.00000E+00
   176  6.21491E-06 -1.04030E+00 -1.04030E+00  0.00000E+00  0.00000E+00  0.00000E+00  0.00000E+00
   177  6.37335E-06 -1.06650E+00 -1.06650E+00  0.00000E+00  0.00000E+00  0.00000E+00  0.00000E+00
   178  6.53459E-06 -1.09313E+00 -1.09313E+00  0.00000E+00  0.00000E+00  0.00000E+00  0.00000E+00
   179  6.69861E-06 -1.12019E+00 -1.12019E+00  0.00000E+00  0.00000E+00  0.00000E+00  0.00000E+00
   180  6.86542E-06 -1.14769E+00 -1.14769E+00  0.00000E+00  0.00000E+00  0.00000E+00  0.00000E+00
   181  7.03504E-06 -1.17562E+00 -1.17562E+00  0.00000E+00  0.00000E+00  0.00000E+00  0.00000E+00
   182  7.20745E-06 -1.20398E+00 -1.20398E+00  0.00000E+00  0.00000E+00  0.00000E+00  0.00000E+00
   183  7.38267E-06 -1.23276E+00 -1.23276E+00  0.00000E+00  0.00000E+00  0.00000E+00  0.00000E+00
   184  7.56069E-06 -1.26197E+00 -1.26197E+00  0.00000E+00  0.00000E+00  0.00000E+00  0.00000E+00
   185  7.74151E-06 -1.29160E+00 -1.29160E+00  0.00000E+00  0.00000E+00  0.00000E+00  0.00000E+00
   186  7.92513E-06 -1.32165E+00 -1.32165E+00  0.00000E+00  0.00000E+00  0.00000E+00  0.00000E+00
   187  8.11154E-06 -1.35212E+00 -1.35212E+00  0.00000E+00  0.00000E+00  0.00000E+00  0.00000E+00
   188  8.30075E-06 -1.38300E+00 -1.38300E+00  0.00000E+00  0.00000E+00  0.00000E+00  0.00000E+00
   189  8.49274E-06 -1.41428E+00 -1.41428E+00  0.00000E+00  0.00000E+00  0.00000E+00  0.00000E+00
   190  8.68752E-06 -1.44597E+00 -1.44597E+00  0.00000E+00  0.00000E+00  0.00000E+00  0.00000E+00
   191  8.88507E-06 -1.47806E+00 -1.47806E+00  0.00000E+00  0.00000E+00  0.00000E+00  0.00000E+00
   192  9.08538E-06 -1.51054E+00 -1.51054E+00  0.00000E+00  0.00000E+00  0.00000E+00  0.00000E+00
   193  9.28845E-06 -1.54341E+00 -1.54341E+00  0.00000E+00  0.00000E+00  0.00000E+00  0.00000E+00
   194  9.49427E-06 -1.57666E+00 -1.57666E+00  0.00000E+00  0.00000E+00  0.00000E+00  0.00000E+00
   195  9.70283E-06 -1.61030E+00 -1.61030E+00  0.00000E+00  0.00000E+00  0.00000E+00  0.00000E+00
   196  9.91412E-06 -1.64431E+00 -1.64431E+00  0.00000E+00  0.00000E+00  0.00000E+00  0.00000E+00
   197  1.01281E-05 -1.67868E+00 -1.67868E+00  0.00000E+00  0.00000E+00  0.00000E+00  0.00000E+00
   198  1.03448E-05 -1.71342E+00 -1.71342E+00  0.00000E+00  0.00000E+00  0.00000E+00  0.00000E+00
   199  1.05642E-05 -1.74851E+00 -1.74851E+00  0.00000E+00  0.00000E+00  0.00000E+00  0.00000E+00
   200  1.07863E-05 -1.78394E+00 -1.78394E+00  0.00000E+00  0.00000E+00  0.00000E+00  0.00000E+00
